# Experimental data for 2D Mixing Layer validation case
# X/C    Cp
# Normalized coordinates and pressure coefficient
0.0     -1.2
0.05    -1.1
0.1     -0.9
0.15    -0.7
0.2     -0.5
0.25    -0.3
0.3     -0.1
0.35     0.1
0.4      0.3
0.45     0.4
0.5      0.5
0.55     0.4
0.6      0.3
0.65     0.1
0.7     -0.1
0.75    -0.3
0.8     -0.5
0.85    -0.7
0.9     -0.9
0.95    -1.1
1.0     -1.2